TITLE	
DATA TYPE	ULTRAVIOLET SPECTRUM
ORIGIN	JASCO
OWNER	
DATE	15/04/20
TIME	10:55:07
SPECTROMETER/DATA SYSTEM	
LOCALE	1045
RESOLUTION	
DELTAX	-1
XUNITS	NANOMETERS
YUNITS	REFLECTANCE
FIRSTX	  840,0000
LASTX	  190,0000
NPOINTS	     651
FIRSTY	    90,81533
MAXY	    91,33363
MINY	    38,24723
XYDATA
840,0000	90,8153
839,0000	90,4371
838,0000	90,8856
837,0000	90,8405
836,0000	90,4033
835,0000	90,603
834,0000	91,3336
833,0000	90,7519
832,0000	90,4961
831,0000	91,0408
830,0000	90,542
829,0000	90,7569
828,0000	90,6519
827,0000	90,9247
826,0000	90,4173
825,0000	91,0022
824,0000	90,525
823,0000	90,1622
822,0000	91,0578
821,0000	90,3395
820,0000	90,9674
819,0000	90,8688
818,0000	90,9461
817,0000	90,7707
816,0000	90,5228
815,0000	90,8417
814,0000	90,5429
813,0000	90,5353
812,0000	91,0346
811,0000	90,5218
810,0000	90,4624
809,0000	90,591
808,0000	90,5867
807,0000	90,5144
806,0000	90,2168
805,0000	90,4083
804,0000	90,3424
803,0000	90,2939
802,0000	90,5418
801,0000	90,2426
800,0000	90,4116
799,0000	90,3936
798,0000	90,5898
797,0000	90,3015
796,0000	90,3442
795,0000	90,2666
794,0000	90,3788
793,0000	90,2664
792,0000	90,4927
791,0000	90,3831
790,0000	90,0682
789,0000	90,4285
788,0000	90,1728
787,0000	90,2727
786,0000	89,7595
785,0000	90,3981
784,0000	89,8646
783,0000	90,1377
782,0000	90,1857
781,0000	90,2102
780,0000	89,9529
779,0000	90,2372
778,0000	90,1503
777,0000	90,3764
776,0000	89,9504
775,0000	89,8872
774,0000	89,8503
773,0000	90,174
772,0000	89,5606
771,0000	89,9147
770,0000	90,1255
769,0000	89,8018
768,0000	89,4721
767,0000	89,8355
766,0000	89,6202
765,0000	89,7914
764,0000	89,895
763,0000	89,7545
762,0000	89,7228
761,0000	89,8419
760,0000	89,563
759,0000	89,6669
758,0000	89,521
757,0000	89,2369
756,0000	89,8014
755,0000	89,9363
754,0000	89,2553
753,0000	89,5201
752,0000	89,4956
751,0000	89,5017
750,0000	89,3484
749,0000	89,3953
748,0000	89,5496
747,0000	89,4999
746,0000	89,5758
745,0000	89,4635
744,0000	89,223
743,0000	89,314
742,0000	89,7867
741,0000	89,4132
740,0000	89,0468
739,0000	89,4418
738,0000	89,174
737,0000	89,0463
736,0000	89,0507
735,0000	89,2146
734,0000	89,3575
733,0000	89,0589
732,0000	89,3503
731,0000	89,2527
730,0000	89,184
729,0000	89,1662
728,0000	89,2888
727,0000	89,2294
726,0000	89,1474
725,0000	88,9536
724,0000	89,2086
723,0000	88,8501
722,0000	88,7805
721,0000	89,0779
720,0000	89,0567
719,0000	88,9143
718,0000	89,0514
717,0000	88,7521
716,0000	88,9649
715,0000	88,9177
714,0000	89,1301
713,0000	88,9174
712,0000	89,1941
711,0000	88,5847
710,0000	88,8957
709,0000	88,4792
708,0000	88,9045
707,0000	88,7523
706,0000	88,6124
705,0000	88,5515
704,0000	88,8147
703,0000	88,8065
702,0000	88,782
701,0000	88,5304
700,0000	88,55
699,0000	88,4062
698,0000	88,4856
697,0000	88,4457
696,0000	88,5967
695,0000	88,5577
694,0000	88,4005
693,0000	88,4198
692,0000	88,5078
691,0000	88,4669
690,0000	88,4462
689,0000	88,7229
688,0000	88,5426
687,0000	88,3525
686,0000	88,4524
685,0000	88,529
684,0000	88,4397
683,0000	88,2399
682,0000	88,441
681,0000	88,3051
680,0000	88,299
679,0000	88,2324
678,0000	88,2436
677,0000	88,2835
676,0000	88,1628
675,0000	88,3095
674,0000	88,0265
673,0000	88,1037
672,0000	88,0003
671,0000	88,2171
670,0000	88,0949
669,0000	88,197
668,0000	88,0865
667,0000	88,0467
666,0000	88,0621
665,0000	88,1542
664,0000	88,1128
663,0000	88,0017
662,0000	88,2045
661,0000	87,9632
660,0000	88,139
659,0000	88,1198
658,0000	88,108
657,0000	88,2728
656,0000	88,1324
655,0000	87,996
654,0000	87,8866
653,0000	87,9851
652,0000	88,185
651,0000	88,3741
650,0000	88,0786
649,0000	88,0571
648,0000	88,0327
647,0000	88,2314
646,0000	88,1129
645,0000	88,0341
644,0000	88,1483
643,0000	88,1614
642,0000	87,9848
641,0000	87,9859
640,0000	87,8173
639,0000	88,2207
638,0000	87,9988
637,0000	88,2083
636,0000	88,1382
635,0000	88,184
634,0000	88,1309
633,0000	88,0958
632,0000	88,3248
631,0000	88,0083
630,0000	88,1223
629,0000	88,2599
628,0000	88,1489
627,0000	88,1288
626,0000	88,2187
625,0000	88,2048
624,0000	88,2627
623,0000	88,3183
622,0000	88,2632
621,0000	88,4501
620,0000	88,2353
619,0000	88,133
618,0000	88,2471
617,0000	88,3281
616,0000	88,3314
615,0000	88,3446
614,0000	88,4409
613,0000	88,3876
612,0000	88,4806
611,0000	88,3606
610,0000	88,466
609,0000	88,407
608,0000	88,541
607,0000	88,3257
606,0000	88,5513
605,0000	88,525
604,0000	88,5894
603,0000	88,3399
602,0000	88,6807
601,0000	88,6058
600,0000	88,6403
599,0000	88,5248
598,0000	88,6668
597,0000	88,6661
596,0000	88,5635
595,0000	88,7416
594,0000	88,7219
593,0000	88,8078
592,0000	88,6223
591,0000	88,7929
590,0000	88,8291
589,0000	88,906
588,0000	88,7954
587,0000	88,994
586,0000	88,6483
585,0000	88,7255
584,0000	89,0233
583,0000	88,9039
582,0000	88,9899
581,0000	88,929
580,0000	88,9581
579,0000	88,9868
578,0000	89,2004
577,0000	89,0054
576,0000	89,0416
575,0000	89,1867
574,0000	89,1698
573,0000	89,2022
572,0000	89,2028
571,0000	89,1705
570,0000	89,0839
569,0000	89,1464
568,0000	89,2531
567,0000	89,2338
566,0000	89,33
565,0000	89,3075
564,0000	89,3706
563,0000	89,4334
562,0000	89,2313
561,0000	89,3288
560,0000	89,3669
559,0000	89,5181
558,0000	89,4848
557,0000	89,3527
556,0000	89,5212
555,0000	89,5974
554,0000	89,4432
553,0000	89,3748
552,0000	89,4055
551,0000	89,6629
550,0000	89,4362
549,0000	89,448
548,0000	89,5663
547,0000	89,3521
546,0000	89,5975
545,0000	89,6553
544,0000	89,6536
543,0000	89,6652
542,0000	89,8004
541,0000	89,623
540,0000	89,5684
539,0000	89,5382
538,0000	89,6034
537,0000	89,4013
536,0000	89,5259
535,0000	89,4979
534,0000	89,5467
533,0000	89,7816
532,0000	89,5909
531,0000	89,5986
530,0000	89,7613
529,0000	89,5572
528,0000	89,4804
527,0000	89,5228
526,0000	89,6877
525,0000	89,5005
524,0000	89,4612
523,0000	89,6705
522,0000	89,5615
521,0000	89,3452
520,0000	89,4486
519,0000	89,606
518,0000	89,2258
517,0000	89,5124
516,0000	89,2246
515,0000	89,3539
514,0000	89,3558
513,0000	89,2345
512,0000	89,3238
511,0000	89,2683
510,0000	89,1826
509,0000	89,2342
508,0000	89,261
507,0000	89,1358
506,0000	89,0285
505,0000	89,0726
504,0000	88,9779
503,0000	88,8135
502,0000	88,9902
501,0000	88,9052
500,0000	88,8672
499,0000	88,9548
498,0000	88,9333
497,0000	88,8072
496,0000	88,9386
495,0000	88,5422
494,0000	88,7085
493,0000	88,8214
492,0000	88,6895
491,0000	88,458
490,0000	88,3454
489,0000	88,4392
488,0000	88,3754
487,0000	88,338
486,0000	88,3851
485,0000	88,3279
484,0000	88,2798
483,0000	88,253
482,0000	88,2632
481,0000	88,2317
480,0000	88,2078
479,0000	87,8855
478,0000	88,1784
477,0000	88,0551
476,0000	88,0668
475,0000	87,9436
474,0000	87,8746
473,0000	87,655
472,0000	87,7894
471,0000	87,7334
470,0000	87,7771
469,0000	87,3896
468,0000	87,5254
467,0000	87,6444
466,0000	87,4804
465,0000	87,4889
464,0000	87,3642
463,0000	87,3142
462,0000	87,2134
461,0000	87,166
460,0000	87,0888
459,0000	87,279
458,0000	87,1152
457,0000	87,0272
456,0000	87,057
455,0000	87,08
454,0000	86,9555
453,0000	86,9657
452,0000	86,8001
451,0000	86,8568
450,0000	86,6949
449,0000	86,6525
448,0000	86,7128
447,0000	86,4622
446,0000	86,6619
445,0000	86,4972
444,0000	86,5149
443,0000	86,5395
442,0000	86,2427
441,0000	86,124
440,0000	86,117
439,0000	86,3572
438,0000	86,1015
437,0000	86,092
436,0000	86,1339
435,0000	85,9045
434,0000	85,9895
433,0000	86,0123
432,0000	85,7062
431,0000	85,8325
430,0000	85,892
429,0000	85,7223
428,0000	85,6329
427,0000	85,4091
426,0000	85,3933
425,0000	85,6886
424,0000	85,5328
423,0000	85,3279
422,0000	85,3459
421,0000	85,3496
420,0000	85,5422
419,0000	85,0836
418,0000	84,9909
417,0000	85,3671
416,0000	85,2562
415,0000	85,0045
414,0000	84,6803
413,0000	84,6874
412,0000	84,5247
411,0000	84,7574
410,0000	84,4054
409,0000	84,5675
408,0000	84,5566
407,0000	84,5204
406,0000	84,4598
405,0000	84,3482
404,0000	84,0968
403,0000	83,9267
402,0000	83,6286
401,0000	84,2013
400,0000	83,6989
399,0000	83,4623
398,0000	83,611
397,0000	83,465
396,0000	83,4719
395,0000	83,0863
394,0000	83,0464
393,0000	83,0515
392,0000	82,9849
391,0000	82,4911
390,0000	82,5102
389,0000	82,3131
388,0000	82,3032
387,0000	81,9936
386,0000	81,8278
385,0000	81,5751
384,0000	81,501
383,0000	81,4732
382,0000	81,203
381,0000	81,4046
380,0000	81,184
379,0000	81,1597
378,0000	80,7674
377,0000	80,2628
376,0000	80,1917
375,0000	79,6813
374,0000	79,5045
373,0000	79,8314
372,0000	79,5039
371,0000	79,4371
370,0000	79,2289
369,0000	78,8567
368,0000	78,8465
367,0000	79,7129
366,0000	79,151
365,0000	79,2416
364,0000	78,6439
363,0000	78,4395
362,0000	78,7512
361,0000	78,08
360,0000	78,2404
359,0000	77,7399
358,0000	78,2142
357,0000	77,9815
356,0000	77,6641
355,0000	77,7679
354,0000	78,1533
353,0000	77,4786
352,0000	77,9882
351,0000	77,407
350,0000	77,4425
349,0000	77,5585
348,0000	76,83
347,0000	77,3967
346,0000	76,5869
345,0000	76,8374
344,0000	77,2414
343,0000	76,676
342,0000	77,2283
341,0000	76,8282
340,0000	77,0111
339,0000	76,8178
338,0000	76,7147
337,0000	76,4069
336,0000	75,8011
335,0000	76,2945
334,0000	76,2213
333,0000	75,8412
332,0000	76,3458
331,0000	75,6166
330,0000	75,5342
329,0000	75,3318
328,0000	75,4855
327,0000	75,3435
326,0000	75,4899
325,0000	75,3584
324,0000	74,6303
323,0000	73,8634
322,0000	74,7888
321,0000	73,8071
320,0000	73,5362
319,0000	73,7724
318,0000	74,0117
317,0000	73,8783
316,0000	73,3044
315,0000	72,9976
314,0000	72,7417
313,0000	72,3903
312,0000	72,2174
311,0000	72,0994
310,0000	72,3072
309,0000	71,8681
308,0000	71,6934
307,0000	71,0294
306,0000	71,3583
305,0000	71,5145
304,0000	70,7986
303,0000	70,6229
302,0000	71,0682
301,0000	70,5364
300,0000	70,3974
299,0000	70,3728
298,0000	70,3187
297,0000	69,7956
296,0000	70,2583
295,0000	69,8745
294,0000	70,1702
293,0000	70,1586
292,0000	69,9508
291,0000	69,6451
290,0000	70,0436
289,0000	69,6902
288,0000	69,7038
287,0000	69,6712
286,0000	69,7717
285,0000	69,3183
284,0000	69,6687
283,0000	69,7705
282,0000	69,9717
281,0000	69,762
280,0000	69,585
279,0000	69,7945
278,0000	69,5884
277,0000	69,8375
276,0000	69,6224
275,0000	69,4157
274,0000	69,5356
273,0000	69,545
272,0000	69,2871
271,0000	69,2898
270,0000	69,3696
269,0000	68,6758
268,0000	68,8558
267,0000	69,2696
266,0000	68,872
265,0000	68,8167
264,0000	68,8246
263,0000	68,6653
262,0000	68,7714
261,0000	68,9136
260,0000	68,8563
259,0000	68,4351
258,0000	68,0462
257,0000	68,501
256,0000	68,187
255,0000	68,1856
254,0000	67,7847
253,0000	67,4559
252,0000	67,9766
251,0000	67,4263
250,0000	67,7196
249,0000	67,4305
248,0000	67,5186
247,0000	67,4672
246,0000	67,3592
245,0000	67,155
244,0000	67,523
243,0000	67,3858
242,0000	67,382
241,0000	67,3102
240,0000	67,4157
239,0000	67,6676
238,0000	67,2704
237,0000	67,5127
236,0000	67,2723
235,0000	67,3676
234,0000	67,1962
233,0000	67,1212
232,0000	67,4763
231,0000	67,3036
230,0000	67,1887
229,0000	66,3293
228,0000	67,0242
227,0000	66,6038
226,0000	66,4485
225,0000	66,4147
224,0000	66,9055
223,0000	66,8855
222,0000	66,7869
221,0000	66,3509
220,0000	66,1314
219,0000	65,6466
218,0000	64,8924
217,0000	65,9053
216,0000	64,7365
215,0000	65,4007
214,0000	64,6831
213,0000	64,2029
212,0000	62,2597
211,0000	63,3426
210,0000	63,0246
209,0000	62,1741
208,0000	62,1542
207,0000	60,3275
206,0000	61,1279
205,0000	62,0989
204,0000	60,3582
203,0000	60,2332
202,0000	59,6499
201,0000	60,5846
200,0000	58,4686
199,0000	57,6592
198,0000	57,6423
197,0000	55,2052
196,0000	55,5295
195,0000	54,6798
194,0000	53,1591
193,0000	50,7775
192,0000	44,2838
191,0000	45,5405
190,0000	38,2472

##### Extended Information
[Comments]
Sample name
Comment
User
Division
Company	Politechnika Swietokrzyska

[Detailed Information]
Creation date	2015-04-20 10:55

Data array type	Linear data array
Horizontal axis	Wavelength [nm]
Vertical axis	%R
Start	840 nm
End	190 nm
Data interval	1 nm
Data points	651     

[Measurement Information]
Instrument name	UV-VIS-NIR
Model name	V-670
Serial No.	B124961154

Accessory	ARSN-733
Accessory S/N	A006461124

Measurement date	2015-04-20 10:54

Parameter file	C:\Users\PolSwi\Desktop\Widma\HAp\parameter - 190-840 - sp100f.uvsp
Photometric mode	%R
Measurement range	840 - 190 nm
Data interval	1 nm
UV/Vis bandwidth	1.0 nm
NIR bandwidth	4.0 nm
Response	Fast
Scan speed	100 nm/min
Change source at	340 nm
Change grating at	850 nm
Light source	D2/WI
Filter exchange	Step
Correction	Baseline

