TITLE	
DATA TYPE	ULTRAVIOLET SPECTRUM
ORIGIN	JASCO
OWNER	
DATE	15/04/20
TIME	11:12:08
SPECTROMETER/DATA SYSTEM	
LOCALE	1045
RESOLUTION	
DELTAX	-1
XUNITS	NANOMETERS
YUNITS	REFLECTANCE
FIRSTX	  840,0000
LASTX	  190,0000
NPOINTS	     651
FIRSTY	    81,33459
MAXY	    82,76572
MINY	    16,95084
XYDATA
840,0000	81,3346
839,0000	81,4625
838,0000	81,6723
837,0000	81,4995
836,0000	81,609
835,0000	81,6123
834,0000	81,5656
833,0000	81,5776
832,0000	81,9051
831,0000	81,5223
830,0000	81,2381
829,0000	81,8167
828,0000	81,4477
827,0000	81,6754
826,0000	81,6582
825,0000	82,1145
824,0000	81,8537
823,0000	81,4836
822,0000	81,9273
821,0000	81,4502
820,0000	81,6283
819,0000	82,1276
818,0000	82,1049
817,0000	81,9732
816,0000	81,6997
815,0000	81,7708
814,0000	81,4616
813,0000	81,6246
812,0000	82,0474
811,0000	81,8621
810,0000	81,58
809,0000	81,7855
808,0000	81,6335
807,0000	81,5256
806,0000	81,5557
805,0000	81,9822
804,0000	81,5683
803,0000	81,844
802,0000	81,6991
801,0000	81,653
800,0000	81,6876
799,0000	82,1247
798,0000	81,9669
797,0000	81,8718
796,0000	81,7162
795,0000	82,0658
794,0000	81,795
793,0000	81,863
792,0000	81,8157
791,0000	81,8877
790,0000	81,5402
789,0000	82,0696
788,0000	81,7493
787,0000	81,859
786,0000	81,9309
785,0000	82,235
784,0000	81,4512
783,0000	81,7123
782,0000	81,9282
781,0000	82,1505
780,0000	82,1022
779,0000	81,9433
778,0000	82,0827
777,0000	82,0195
776,0000	82,0058
775,0000	81,9036
774,0000	82,0689
773,0000	82,0261
772,0000	81,8539
771,0000	82,04
770,0000	82,0513
769,0000	82,2675
768,0000	81,8377
767,0000	81,9872
766,0000	81,7476
765,0000	82,105
764,0000	82,0413
763,0000	81,9472
762,0000	81,7595
761,0000	82,1432
760,0000	82,0101
759,0000	81,8077
758,0000	81,9405
757,0000	81,7394
756,0000	81,9323
755,0000	82,2845
754,0000	82,0135
753,0000	81,9949
752,0000	82,0756
751,0000	82,3009
750,0000	82,0425
749,0000	82,0077
748,0000	82,123
747,0000	82,3478
746,0000	82,2001
745,0000	82,1507
744,0000	82,1274
743,0000	82,176
742,0000	82,3795
741,0000	82,1762
740,0000	82,1574
739,0000	82,1206
738,0000	82,1307
737,0000	82,0211
736,0000	82,1383
735,0000	82,2414
734,0000	82,4068
733,0000	82,3262
732,0000	82,118
731,0000	82,1706
730,0000	82,0769
729,0000	81,9707
728,0000	82,3888
727,0000	82,4207
726,0000	82,3696
725,0000	82,1297
724,0000	82,4347
723,0000	82,5037
722,0000	82,4368
721,0000	82,3105
720,0000	82,3002
719,0000	82,2461
718,0000	82,3691
717,0000	82,1613
716,0000	82,201
715,0000	82,3395
714,0000	82,4077
713,0000	82,4422
712,0000	82,4849
711,0000	82,2418
710,0000	82,4363
709,0000	82,1973
708,0000	82,3828
707,0000	82,3075
706,0000	82,3529
705,0000	82,3221
704,0000	82,5848
703,0000	82,5186
702,0000	82,497
701,0000	82,4459
700,0000	82,4513
699,0000	82,2465
698,0000	82,3067
697,0000	82,3107
696,0000	82,4892
695,0000	82,5498
694,0000	82,4519
693,0000	82,4401
692,0000	82,5412
691,0000	82,4552
690,0000	82,5646
689,0000	82,7038
688,0000	82,5205
687,0000	82,5281
686,0000	82,6443
685,0000	82,6437
684,0000	82,7657
683,0000	82,4265
682,0000	82,5261
681,0000	82,4618
680,0000	82,4535
679,0000	82,4962
678,0000	82,4306
677,0000	82,5394
676,0000	82,4608
675,0000	82,5623
674,0000	82,481
673,0000	82,679
672,0000	82,5088
671,0000	82,6743
670,0000	82,4078
669,0000	82,5706
668,0000	82,3935
667,0000	82,4651
666,0000	82,5883
665,0000	82,7612
664,0000	82,3694
663,0000	82,5572
662,0000	82,4467
661,0000	82,478
660,0000	82,4369
659,0000	82,5342
658,0000	82,3717
657,0000	82,3483
656,0000	82,5867
655,0000	82,4598
654,0000	82,3123
653,0000	82,4662
652,0000	82,5998
651,0000	82,6734
650,0000	82,5362
649,0000	82,3204
648,0000	82,3134
647,0000	82,5614
646,0000	82,4732
645,0000	82,2999
644,0000	82,2745
643,0000	82,424
642,0000	82,3344
641,0000	82,3796
640,0000	82,2014
639,0000	82,4093
638,0000	82,3841
637,0000	82,2518
636,0000	82,2116
635,0000	82,2504
634,0000	82,2354
633,0000	82,1415
632,0000	82,2655
631,0000	82,0694
630,0000	82,1456
629,0000	82,0953
628,0000	81,9679
627,0000	82,1755
626,0000	82,0046
625,0000	82,0167
624,0000	81,8382
623,0000	81,9663
622,0000	81,9875
621,0000	82,0082
620,0000	81,9009
619,0000	81,7411
618,0000	81,6602
617,0000	81,6306
616,0000	81,6494
615,0000	81,7027
614,0000	81,692
613,0000	81,5535
612,0000	81,3943
611,0000	81,3909
610,0000	81,4858
609,0000	81,3063
608,0000	81,5061
607,0000	81,0865
606,0000	81,2156
605,0000	81,2483
604,0000	81,1651
603,0000	80,9779
602,0000	81,2019
601,0000	81,1843
600,0000	81,1544
599,0000	80,8304
598,0000	80,9912
597,0000	80,8976
596,0000	80,8475
595,0000	80,6873
594,0000	80,7337
593,0000	80,6999
592,0000	80,6859
591,0000	80,7253
590,0000	80,7876
589,0000	80,7737
588,0000	80,5915
587,0000	80,6051
586,0000	80,5086
585,0000	80,6057
584,0000	80,665
583,0000	80,5909
582,0000	80,5175
581,0000	80,3852
580,0000	80,3783
579,0000	80,4476
578,0000	80,4742
577,0000	80,3117
576,0000	80,3914
575,0000	80,4211
574,0000	80,4026
573,0000	80,3288
572,0000	80,1769
571,0000	80,2339
570,0000	80,3444
569,0000	80,0935
568,0000	79,9636
567,0000	80,2492
566,0000	79,9849
565,0000	80,0161
564,0000	80,1484
563,0000	80,032
562,0000	79,9812
561,0000	79,7648
560,0000	79,8487
559,0000	79,8583
558,0000	79,9002
557,0000	79,8288
556,0000	79,7205
555,0000	79,8929
554,0000	79,8127
553,0000	79,616
552,0000	79,6176
551,0000	79,7715
550,0000	79,5113
549,0000	79,5962
548,0000	79,6359
547,0000	79,5857
546,0000	79,5393
545,0000	79,6997
544,0000	79,4979
543,0000	79,4949
542,0000	79,4921
541,0000	79,4445
540,0000	79,3257
539,0000	79,0835
538,0000	79,3333
537,0000	79,188
536,0000	79,177
535,0000	79,2998
534,0000	79,2763
533,0000	79,1684
532,0000	79,1299
531,0000	79,1614
530,0000	79,2057
529,0000	79,0062
528,0000	79,0064
527,0000	78,9945
526,0000	78,9898
525,0000	78,8759
524,0000	78,741
523,0000	78,8956
522,0000	78,8501
521,0000	78,8579
520,0000	78,759
519,0000	78,8073
518,0000	78,4997
517,0000	78,652
516,0000	78,4266
515,0000	78,5935
514,0000	78,4533
513,0000	78,2601
512,0000	78,3967
511,0000	78,284
510,0000	78,1407
509,0000	78,2966
508,0000	78,4662
507,0000	78,1535
506,0000	78,127
505,0000	78,0112
504,0000	77,8725
503,0000	77,854
502,0000	77,884
501,0000	77,82
500,0000	77,759
499,0000	77,8448
498,0000	77,6558
497,0000	77,7453
496,0000	77,7281
495,0000	77,3588
494,0000	77,2915
493,0000	77,3611
492,0000	77,4141
491,0000	77,1916
490,0000	77,2044
489,0000	77,0115
488,0000	77,0549
487,0000	76,9941
486,0000	76,9932
485,0000	76,7958
484,0000	76,7808
483,0000	76,6152
482,0000	76,7426
481,0000	76,7458
480,0000	76,6161
479,0000	76,4515
478,0000	76,5167
477,0000	76,4641
476,0000	76,4544
475,0000	76,4513
474,0000	76,2045
473,0000	76,1896
472,0000	76,1203
471,0000	76,0112
470,0000	76,0489
469,0000	75,9411
468,0000	75,9112
467,0000	76,0709
466,0000	75,858
465,0000	75,7267
464,0000	75,7704
463,0000	75,5387
462,0000	75,5017
461,0000	75,548
460,0000	75,3371
459,0000	75,4293
458,0000	75,4615
457,0000	75,2653
456,0000	75,4202
455,0000	75,3516
454,0000	75,2632
453,0000	75,1119
452,0000	75,0441
451,0000	75,1254
450,0000	74,8865
449,0000	74,9019
448,0000	74,7589
447,0000	74,6349
446,0000	74,6057
445,0000	74,5103
444,0000	74,5126
443,0000	74,5734
442,0000	74,3941
441,0000	74,3861
440,0000	74,0993
439,0000	74,0823
438,0000	74,1643
437,0000	74,1555
436,0000	74,137
435,0000	73,999
434,0000	73,9418
433,0000	73,9529
432,0000	73,875
431,0000	73,657
430,0000	73,6034
429,0000	73,7195
428,0000	73,5326
427,0000	73,2178
426,0000	73,3285
425,0000	73,4819
424,0000	73,2786
423,0000	73,1523
422,0000	73,3033
421,0000	72,9554
420,0000	73,0486
419,0000	72,7857
418,0000	72,6334
417,0000	72,7571
416,0000	72,5668
415,0000	72,6718
414,0000	72,2335
413,0000	72,2523
412,0000	72,3587
411,0000	72,1156
410,0000	72,2185
409,0000	71,9111
408,0000	71,862
407,0000	72,0772
406,0000	71,6956
405,0000	71,7294
404,0000	71,3041
403,0000	71,2839
402,0000	71,1047
401,0000	71,1827
400,0000	71,0306
399,0000	70,9292
398,0000	70,7422
397,0000	70,801
396,0000	70,8205
395,0000	70,3534
394,0000	70,1962
393,0000	70,3981
392,0000	70,3297
391,0000	70,0685
390,0000	69,9027
389,0000	69,8438
388,0000	69,4281
387,0000	69,5422
386,0000	69,3734
385,0000	69,3981
384,0000	69,4708
383,0000	69,3325
382,0000	69,1212
381,0000	68,9588
380,0000	68,7822
379,0000	68,8573
378,0000	68,7048
377,0000	68,2074
376,0000	68,0355
375,0000	67,6919
374,0000	67,822
373,0000	67,6088
372,0000	67,8086
371,0000	67,4269
370,0000	67,2388
369,0000	67,335
368,0000	67,1004
367,0000	66,9096
366,0000	66,6254
365,0000	66,6775
364,0000	66,2643
363,0000	65,9508
362,0000	66,2764
361,0000	66,0779
360,0000	65,4796
359,0000	65,2548
358,0000	65,6354
357,0000	65,5581
356,0000	64,6365
355,0000	64,436
354,0000	64,6903
353,0000	64,4686
352,0000	64,185
351,0000	64,2192
350,0000	63,91
349,0000	63,7223
348,0000	62,992
347,0000	62,9211
346,0000	62,9382
345,0000	62,6542
344,0000	62,6405
343,0000	62,3186
342,0000	62,1551
341,0000	62,2527
340,0000	62,5238
339,0000	61,3504
338,0000	61,896
337,0000	61,4171
336,0000	61,3308
335,0000	60,9197
334,0000	60,7201
333,0000	60,3302
332,0000	60,3432
331,0000	60,1917
330,0000	59,3354
329,0000	59,423
328,0000	59,4824
327,0000	58,9679
326,0000	58,9971
325,0000	58,697
324,0000	57,4999
323,0000	57,2373
322,0000	57,1601
321,0000	56,389
320,0000	55,7023
319,0000	55,5953
318,0000	55,3633
317,0000	55,0321
316,0000	54,2085
315,0000	53,7233
314,0000	52,7248
313,0000	51,9622
312,0000	51,0714
311,0000	50,765
310,0000	50,1505
309,0000	49,3463
308,0000	48,623
307,0000	47,0343
306,0000	46,6262
305,0000	45,6779
304,0000	45,0938
303,0000	43,9296
302,0000	42,9095
301,0000	41,823
300,0000	40,9673
299,0000	39,7433
298,0000	38,7881
297,0000	37,6287
296,0000	36,6819
295,0000	35,6773
294,0000	34,7041
293,0000	33,2889
292,0000	32,6192
291,0000	31,556
290,0000	30,8747
289,0000	29,7576
288,0000	28,7918
287,0000	28,075
286,0000	27,2501
285,0000	26,6889
284,0000	25,9337
283,0000	25,2687
282,0000	24,6542
281,0000	23,934
280,0000	23,5625
279,0000	22,9818
278,0000	22,7504
277,0000	21,9245
276,0000	21,7843
275,0000	21,2285
274,0000	20,8557
273,0000	20,5909
272,0000	20,3888
271,0000	19,9977
270,0000	19,7108
269,0000	19,3744
268,0000	19,3494
267,0000	19,0382
266,0000	18,9107
265,0000	18,799
264,0000	18,6336
263,0000	18,505
262,0000	18,4266
261,0000	18,2398
260,0000	18,0144
259,0000	18,0617
258,0000	17,9835
257,0000	17,7185
256,0000	17,7405
255,0000	17,6629
254,0000	17,4418
253,0000	17,5088
252,0000	17,2605
251,0000	17,259
250,0000	17,3175
249,0000	17,1685
248,0000	17,1281
247,0000	17,2064
246,0000	17,183
245,0000	16,9508
244,0000	17,2368
243,0000	17,0549
242,0000	17,0523
241,0000	17,0144
240,0000	17,1982
239,0000	17,272
238,0000	17,2274
237,0000	17,2801
236,0000	17,4493
235,0000	17,207
234,0000	17,4877
233,0000	17,2228
232,0000	17,52
231,0000	17,8351
230,0000	17,8323
229,0000	17,7151
228,0000	17,9664
227,0000	18,1884
226,0000	18,0477
225,0000	18,5832
224,0000	18,5619
223,0000	18,6401
222,0000	18,8966
221,0000	19,1888
220,0000	19,3401
219,0000	19,3152
218,0000	19,5937
217,0000	20,4241
216,0000	20,16
215,0000	20,6751
214,0000	21,2655
213,0000	21,6441
212,0000	21,8716
211,0000	22,6261
210,0000	22,8711
209,0000	22,9058
208,0000	23,8335
207,0000	23,7773
206,0000	24,572
205,0000	25,0977
204,0000	25,5806
203,0000	25,3304
202,0000	24,9484
201,0000	26,3149
200,0000	26,3775
199,0000	26,7785
198,0000	27,1907
197,0000	27,944
196,0000	27,6927
195,0000	27,6048
194,0000	27,3963
193,0000	28,2111
192,0000	24,5104
191,0000	29,0674
190,0000	26,5376

##### Extended Information
[Comments]
Sample name
Comment
User
Division
Company	Politechnika Swietokrzyska

[Detailed Information]
Creation date	2015-04-20 11:12

Data array type	Linear data array
Horizontal axis	Wavelength [nm]
Vertical axis	%R
Start	840 nm
End	190 nm
Data interval	1 nm
Data points	651     

[Measurement Information]
Instrument name	UV-VIS-NIR
Model name	V-670
Serial No.	B124961154

Accessory	ARSN-733
Accessory S/N	A006461124

Measurement date	2015-04-20 11:11

Parameter file	C:\Users\PolSwi\Desktop\Widma\HAp\parameter - 190-840 - sp100f.uvsp
Photometric mode	%R
Measurement range	840 - 190 nm
Data interval	1 nm
UV/Vis bandwidth	1.0 nm
NIR bandwidth	4.0 nm
Response	Fast
Scan speed	100 nm/min
Change source at	340 nm
Change grating at	850 nm
Light source	D2/WI
Filter exchange	Step
Correction	Baseline

